'sample #','MLII','V1'
0,955,992
1,955,992
2,955,992
3,955,992
4,955,992
5,955,992
6,955,992
7,955,992
8,958,994
9,960,995
10,960,990
11,959,988
12,958,990
13,959,994
14,961,992
15,963,990
16,964,987
17,961,985
18,960,987
19,961,987
20,964,989
21,966,984
22,966,986
23,965,983
24,966,985
25,965,989
26,967,989
27,973,986
28,978,984
29,984,981
30,985,982
31,992,982
32,992,986
33,991,980
34,984,979
35,984,975
36,982,977
37,982,981
38,983,979
39,982,977
40,982,976
41,980,975
42,974,979
43,974,981
44,974,983
45,972,983
46,971,983
47,969,985
48,963,986
49,960,989
50,958,988
51,960,988
52,960,984
53,961,984
54,956,987
55,954,988
56,957,989
57,960,984
58,962,984
59,957,983
60,955,983
61,954,984
62,954,985
63,953,981
64,954,981
65,954,980
66,950,981
67,952,980
68,955,980
69,959,980
70,959,980
71,957,978
72,950,975
73,944,977
74,944,978
75,945,978
76,954,976
77,982,976
78,1022,976
79,1073,975
80,1130,974
81,1194,967
82,1241,961
83,1237,949
84,1187,944
85,1120,942
86,1066,951
87,1022,965
88,995,978
89,987,984
90,976,984
91,967,981
92,967,983
93,967,985
94,966,988
95,964,986
96,957,984
97,952,984
98,952,987
99,947,988
100,945,985
101,941,982
102,938,978
103,937,979
104,943,984
105,942,983
106,943,982
107,941,979
108,936,979
109,938,982
110,941,986
111,940,986
112,941,979
113,940,978
114,938,975
115,936,977
116,939,979
117,941,979
118,939,976
119,938,974
120,939,974
121,941,978
122,940,980
123,941,978
124,940,977
125,940,976
126,937,979
127,941,982
128,941,984
129,944,987
130,945,986
131,942,982
132,939,985
133,941,988
134,943,989
135,945,988
136,944,985
137,942,984
138,940,987
139,942,985
140,945,985
141,948,982
142,946,981
143,944,980
144,941,982
145,940,983
146,947,982
147,949,980
148,948,983
149,949,981
150,951,982
151,954,982
152,954,981
153,954,980
154,956,977
155,954,975
156,954,974
157,959,973
158,960,976
159,962,974
160,962,975
161,962,976
162,963,976
163,967,974
164,970,976
165,971,975
166,971,978
167,973,977
168,976,978
169,980,979
170,982,982
171,983,983
172,986,983
173,989,984
174,989,983
175,991,982
176,993,984
177,995,984
178,998,984
179,999,981
180,997,979
181,999,979
182,1002,981
183,1006,981
184,1003,979
185,1000,976
186,1000,972
187,1000,973
188,1002,977
189,1002,978
190,998,978
191,992,975
192,991,973
193,990,976
194,990,979
195,988,981
196,983,977
197,979,972
198,977,971
199,975,974
200,974,976
201,973,977
202,971,977
203,969,974
204,967,972
205,965,975
206,966,981
207,963,981
208,961,979
209,958,974
210,956,979
211,959,980
212,959,986
213,961,987
214,962,987
215,957,984
216,953,983
217,953,986
218,951,989
219,955,989
220,955,986
221,958,983
222,954,983
223,953,987
224,956,988
225,955,985
226,955,982
227,954,979
228,954,979
229,954,984
230,955,986
231,958,983
232,956,981
233,954,980
234,952,982
235,954,986
236,956,986
237,958,981
238,960,977
239,959,977
240,960,977
241,959,983
242,960,983
243,961,979
244,959,978
245,955,976
246,954,977
247,958,981
248,960,984
249,963,980
250,963,982
251,964,980
252,960,982
253,959,985
254,959,987
255,963,987
256,966,987
257,963,984
258,960,986
259,959,989
260,959,990
261,962,987
262,962,988
263,962,987
264,959,986
265,962,989
266,962,989
267,961,987
268,962,985
269,960,982
270,958,984
271,960,984
272,961,985
273,961,981
274,961,981
275,956,982
276,956,982
277,959,984
278,962,984
279,963,984
280,960,983
281,960,980
282,958,979
283,958,976
284,957,976
285,960,977
286,960,976
287,958,975
288,956,975
289,955,977
290,957,979
291,960,977
292,958,977
293,959,979
294,960,980
295,959,982
296,959,983
297,961,982
298,961,987
299,960,985
300,957,985
301,957,986
302,959,988
303,960,988
304,958,991
305,956,988
306,954,986
307,958,986
308,957,987
309,959,984
310,962,983
311,956,983
312,953,980
313,957,982
314,960,981
315,963,983
316,962,982
317,961,984
318,960,982
319,954,979
320,961,984
321,960,985
322,960,983
323,960,981
324,960,980
325,960,974
326,962,980
327,962,979
328,961,977
329,961,979
330,962,978
331,965,979
332,968,979
333,968,977
334,966,978
335,965,979
336,965,977
337,967,980
338,969,981
339,976,982
340,980,983
341,981,983
342,981,987
343,989,988
344,995,988
345,996,987
346,994,989
347,987,987
348,982,986
349,981,987
350,981,986
351,983,986
352,982,984
353,981,984
354,977,981
355,973,982
356,974,983
357,974,981
358,976,982
359,973,979
360,970,981
361,969,980
362,964,980
363,964,980
364,959,980
365,960,979
366,959,979
367,961,978
368,963,976
369,963,975
370,961,978
371,960,976
372,953,972
373,954,974
374,954,974
375,957,973
376,960,976
377,959,973
378,956,975
379,954,975
380,959,979
381,963,980
382,962,985
383,959,980
384,952,981
385,953,980
386,952,986
387,953,989
388,952,991
389,950,986
390,970,987
391,1007,987
392,1051,987
393,1101,987
394,1162,981
395,1213,971
396,1228,960
397,1202,950
398,1145,946
399,1093,953
400,1047,962
401,1013,971
402,996,978
403,987,982
404,977,985
405,976,985
406,974,984
407,970,981
408,964,979
409,961,979
410,956,982
411,950,981
412,948,979
413,943,974
414,945,974
415,947,977
416,949,983
417,951,981
418,949,978
419,945,975
420,941,975
421,940,978
422,943,984
423,946,983
424,942,983
425,944,981
426,942,985
427,946,990
428,945,989
429,946,989
430,945,987
431,941,986
432,939,988
433,940,989
434,945,992
435,946,988
436,944,986
437,943,984
438,943,985
439,945,984
440,947,984
441,947,986
442,947,983
443,944,983
444,943,984
445,943,984
446,944,986
447,946,983
448,947,983
449,944,980
450,941,980
451,943,981
452,946,980
453,949,978
454,950,977
455,947,978
456,944,978
457,947,978
458,950,979
459,952,979
460,951,977
461,951,979
462,949,979
463,948,978
464,953,979
465,956,981
466,956,981
467,957,983
468,955,985
469,957,985
470,960,987
471,961,987
472,958,988
473,961,984
474,958,986
475,961,988
476,964,990
477,969,989
478,973,990
479,976,987
480,973,985
481,975,983
482,977,987
483,980,983
484,982,985
485,982,980
486,981,981
487,983,981
488,987,982
489,990,981
490,994,982
491,996,981
492,995,978
493,996,978
494,1001,979
495,1000,978
496,999,975
497,1001,973
498,998,970
499,1000,973
500,1000,974
501,999,974
502,1001,976
503,998,974
504,999,972
505,999,973
506,998,976
507,996,979
508,992,981
509,990,979
510,986,980
511,985,983
512,986,985
513,988,987
514,985,987
515,979,987
516,977,986
517,976,988
518,977,991
519,977,991
520,976,992
521,970,988
522,969,987
523,968,985
524,969,988
525,969,989
526,968,986
527,964,985
528,962,985
529,962,985
530,963,987
531,965,991
532,965,988
533,962,984
534,960,984
535,963,984
536,964,986
537,965,987
538,961,986
539,961,980
540,960,978
541,963,982
542,963,982
543,965,984
544,962,983
545,963,979
546,964,978
547,963,980
548,964,984
549,962,988
550,965,987
551,965,983
552,965,983
553,966,987
554,967,992
555,968,992
556,969,990
557,969,990
558,967,990
559,966,994
560,969,995
561,968,994
562,970,990
563,967,989
564,965,989
565,965,992
566,969,994
567,970,991
568,971,990
569,971,985
570,970,986
571,971,987
572,970,991
573,972,992
574,972,989
575,971,987
576,967,987
577,967,989
578,969,989
579,972,987
580,971,983
581,968,980
582,967,981
583,968,984
584,971,985
585,971,983
586,971,982
587,971,981
588,971,982
589,970,985
590,970,986
591,973,985
592,971,984
593,968,984
594,966,987
595,968,991
596,970,994
597,970,993
598,971,992
599,971,989
600,965,991
601,968,993
602,967,996
603,971,993
604,971,993
605,968,991
606,967,992
607,967,994
608,969,994
609,969,990
610,969,988
611,969,984
612,967,988
613,967,990
614,970,992
615,971,988
616,970,986
617,969,987
618,967,986
619,968,989
620,971,992
621,971,988
622,969,987
623,970,986
624,969,984
625,969,983
626,969,986
627,972,986
628,971,982
629,969,979
630,967,979
631,968,982
632,968,986
633,972,984
634,970,983
635,969,981
636,968,980
637,968,984
638,970,989
639,973,991
640,979,991
641,977,989
642,975,989
643,976,994
644,980,996
645,982,995
646,981,994
647,980,994
648,979,992
649,977,996
650,978,1000
651,980,996
652,986,993
653,988,989
654,987,987
655,994,993
656,1001,995
657,1003,993
658,1004,989
659,999,985
660,994,986
661,993,988
662,994,991
663,992,989
664,989,988
665,987,983
666,984,984
667,986,989
668,986,987
669,988,984
670,985,981
671,982,977
672,979,978
673,980,982
674,979,983
675,976,983
676,976,980
677,972,980
678,966,978
679,967,983
680,968,982
681,971,982
682,969,984
683,965,982
684,963,984
685,965,990
686,966,992
687,969,992
688,967,990
689,965,989
690,963,986
691,960,993
692,963,994
693,965,993
694,964,992
695,963,987
696,963,988
697,965,990
698,967,994
699,966,993
700,962,988
701,956,988
702,950,987
703,951,992
704,966,992
705,994,992
706,1037,991
707,1083,988
708,1132,986
709,1192,984
710,1241,981
711,1257,971
712,1232,957
713,1177,951
714,1120,954
715,1068,962
716,1027,976
717,1008,984
718,1001,986
719,987,982
720,977,980
721,975,984
722,977,986
723,976,988
724,972,988
725,964,986
726,955,987
727,954,992
728,951,994
729,954,993
730,951,994
731,949,993
732,946,995
733,949,998
734,950,998
735,950,997
736,949,996
737,947,994
738,946,994
739,945,997
740,944,998
741,946,995
742,946,992
743,944,993
744,944,993
745,946,991
746,947,994
747,947,992
748,947,993
749,945,992
750,942,993
751,944,992
752,946,994
753,947,992
754,945,992
755,945,990
756,943,987
757,943,988
758,946,988
759,948,988
760,948,986
761,945,986
762,944,987
763,942,987
764,946,989
765,947,990
766,949,990
767,947,988
768,945,991
769,945,993
770,946,993
771,948,994
772,947,997
773,946,998
774,945,997
775,947,999
776,949,999
777,951,1001
778,951,1000
779,950,998
780,950,998
781,951,998
782,954,1000
783,956,998
784,955,999
785,955,995
786,952,993
787,954,993
788,960,995
789,963,998
790,966,996
791,964,994
792,966,992
793,965,993
794,968,995
795,973,998
796,977,994
797,975,989
798,975,987
799,977,987
800,979,990
801,983,992
802,988,991
803,988,988
804,986,987
805,990,987
806,993,993
807,995,992
808,996,990
809,994,988
810,996,986
811,995,991
812,997,993
813,1002,996
814,998,998
815,999,994
816,998,994
817,997,995
818,1000,996
819,1000,996
820,1000,999
821,995,995
822,991,994
823,990,996
824,989,1000
825,989,1000
826,986,998
827,981,994
828,979,993
829,977,994
830,974,997
831,975,997
832,971,994
833,970,993
834,965,994
835,961,998
836,963,1000
837,965,1000
838,964,999
839,961,995
840,959,993
841,959,994
842,959,997
843,959,995
844,958,992
845,956,991
846,953,990
847,952,992
848,954,995
849,957,997
850,953,993
851,952,991
852,951,992
853,951,995
854,955,999
855,954,1000
856,952,1002
857,952,999
858,953,1001
859,954,1001
860,955,1005
861,957,1005
862,955,1004
863,951,1001
864,949,1001
865,951,1006
866,954,1007
867,953,1006
868,955,1003
869,954,999
870,954,999
871,953,1003
872,955,1002
873,958,1000
874,959,999
875,958,996
876,954,995
877,954,999
878,954,1002
879,956,1000
880,956,1000
881,954,999
882,953,995
883,955,997
884,957,998
885,958,995
886,956,996
887,956,989
888,954,988
889,956,994
890,959,997
891,959,997
892,960,995
893,956,991
894,953,991
895,952,992
896,953,997
897,955,1000
898,958,997
899,957,996
900,955,996
901,955,999
902,954,1000
903,958,1004
904,958,1005
905,955,1004
906,955,1001
907,954,1003
908,956,1007
909,955,1010
910,955,1008
911,955,1001
912,954,999
913,955,1001
914,955,1005
915,957,1003
916,953,1002
917,952,1002
918,951,996
919,951,996
920,952,1000
921,954,1003
922,953,1002
923,953,1001
924,953,999
925,954,998
926,955,1003
927,956,1001
928,953,1001
929,950,997
930,948,995
931,948,996
932,949,998
933,951,998
934,952,996
935,953,993
936,953,991
937,951,992
938,951,997
939,955,1001
940,956,1000
941,952,995
942,947,994
943,948,994
944,952,1002
945,955,1003
946,955,1003
947,951,1003
948,949,1002
949,947,1002
950,953,1006
951,954,1010
952,954,1008
953,952,1004
954,950,1003
955,950,1004
956,953,1009
957,954,1009
958,954,1005
959,951,1003
960,951,1001
961,952,1002
962,957,1003
963,959,1006
964,958,1003
965,959,1003
966,958,1002
967,961,1001
968,963,1005
969,962,1007
970,960,1004
971,959,999
972,960,998
973,962,998
974,968,1003
975,971,1000
976,975,999
977,976,995
978,978,993
979,978,995
980,979,1001
981,980,1001
982,977,999
983,974,996
984,971,991
985,969,994
986,973,998
987,972,1002
988,973,1002
989,970,1000
990,964,1002
991,961,1004
992,961,1005
993,960,1007
994,959,1008
995,957,1006
996,953,1004
997,951,1005
998,951,1007
999,948,1006
1000,946,1004
1001,944,1003
1002,945,1004
1003,948,1004
1004,949,1005
1005,947,1004
1006,941,1002
1007,940,1001
1008,940,1001
1009,939,1003
1010,941,1005
1011,943,1005
1012,942,1004
1013,939,1001
1014,938,1001
1015,942,1002
1016,945,1003
1017,944,1001
1018,940,996
1019,939,996
1020,937,997
1021,934,999
1022,933,1002
1023,931,1003
1024,934,999
1025,942,997
1026,971,997
1027,1019,1003
1028,1065,1004
1029,1116,1002
1030,1167,997
1031,1219,990
1032,1243,986
1033,1226,983
1034,1175,982
1035,1116,981
1036,1062,982
1037,1014,988
1038,987,997
1039,979,1007
1040,974,1012
1041,968,1012
1042,959,1009
1043,954,1006
1044,953,1006
1045,954,1009
1046,951,1009
1047,947,1009
1048,939,1008
1049,935,1006
1050,935,1006
1051,933,1005
1052,934,1006
1053,933,1006
1054,928,1006
1055,925,1004
1056,927,1004
1057,929,1007
1058,930,1007
1059,930,1008
1060,928,1005
1061,923,1001
1062,924,998
1063,926,998
1064,928,998
1065,925,998
1066,924,998
1067,926,996
1068,926,997
1069,929,997
1070,931,998
1071,929,997
1072,929,996
1073,927,997
1074,926,997
1075,928,1000
1076,929,1001
1077,931,1003
1078,929,1005
1079,926,1006
1080,929,1007
1081,931,1009
1082,929,1009
1083,927,1010
1084,927,1009
1085,927,1010
1086,929,1009
1087,930,1011
1088,931,1010
1089,929,1011
1090,929,1009
1091,928,1007
1092,930,1007
1093,929,1007
1094,932,1003
1095,932,1003
1096,931,1003
1097,927,1002
1098,929,1004
1099,930,1004
1100,933,1004
1101,931,1005
1102,933,1004
1103,932,1004
1104,932,1004
1105,933,1005
1106,937,1003
1107,937,1001
1108,938,997
1109,937,996
1110,937,996
1111,941,998
1112,942,998
1113,944,998
1114,945,998
1115,942,998
1116,944,996
1117,948,999
1118,953,998
1119,953,1000
1120,949,1000
1121,953,999
1122,955,1001
1123,960,1003
1124,963,1004
1125,966,1006
1126,966,1006
1127,968,1003
1128,969,1005
1129,973,1005
1130,977,1006
1131,977,1006
1132,977,1005
1133,975,1006
1134,976,1005
1135,982,1004
1136,985,1001
1137,988,1001
1138,986,1000
1139,985,996
1140,986,997
1141,987,1000
1142,989,1000
1143,990,1000
1144,988,1000
1145,987,997
1146,989,997
1147,986,997
1148,986,998
1149,985,999
1150,982,996
1151,977,991
1152,972,993
1153,973,992
1154,973,995
1155,970,993
1156,965,992
1157,960,991
1158,957,992
1159,955,996
1160,959,998
1161,958,999
1162,953,996
1163,950,995
1164,950,997
1165,949,999
1166,951,1004
1167,949,1007
1168,948,1004
1169,946,1004
1170,942,1004
1171,943,1007
1172,943,1007
1173,945,1006
1174,942,1006
1175,940,1006
1176,940,1006
1177,942,1007
1178,946,1006
1179,945,1005
1180,943,1006
1181,941,1003
1182,940,1003
1183,941,1002
1184,942,1001
1185,941,1000
1186,940,1002
1187,939,1001
1188,939,1002
1189,939,1003
1190,944,1003
1191,943,1001
1192,941,1002
1193,939,1002
1194,940,1002
1195,940,1000
1196,940,998
1197,938,997
1198,938,995
1199,938,993
1200,938,996
1201,943,996
1202,943,995
1203,943,995
1204,941,994
1205,938,995
1206,940,998
1207,941,996
1208,942,995
1209,944,995
1210,941,997
1211,941,999
1212,941,1001
1213,942,1003
1214,946,1003
1215,946,1002
1216,944,1004
1217,942,1003
1218,941,1005
1219,945,1006
1220,947,1004
1221,946,1004
1222,943,1005
1223,945,1003
1224,944,1003
1225,947,1003
1226,948,1001
1227,946,999
1228,944,999
1229,941,998
1230,942,998
1231,944,999
1232,944,998
1233,942,999
1234,940,998
1235,943,998
1236,942,999
1237,944,999
1238,944,999
1239,945,995
1240,944,995
1241,941,993
1242,940,994
1243,941,996
1244,942,995
1245,940,993
1246,940,993
1247,940,993
1248,938,995
1249,941,993
1250,945,993
1251,944,993
1252,943,997
1253,940,996
1254,937,999
1255,939,998
1256,940,1002
1257,941,1002
1258,943,1001
1259,942,1000
1260,938,1004
1261,938,1005
1262,945,1004
1263,942,1005
1264,940,1003
1265,939,1002
1266,941,999
1267,943,1002
1268,942,1003
1269,943,1001
1270,941,1001
1271,941,998
1272,941,997
1273,943,999
1274,947,999
1275,942,1000
1276,940,998
1277,938,998
1278,940,997
1279,942,997
1280,944,1001
1281,943,999
1282,940,998
1283,940,993
1284,938,994
1285,941,992
1286,944,993
1287,942,994
1288,943,992
1289,943,992
1290,941,992
1291,944,992
1292,942,994
1293,942,994
1294,940,992
1295,942,993
1296,943,994
1297,946,995
1298,949,997
1299,949,998
1300,949,999
1301,949,1002
1302,949,1002
1303,951,1002
1304,955,1005
1305,955,1004
1306,954,1004
1307,949,1003
1308,950,1001
1309,957,1003
1310,966,1005
1311,970,1005
1312,974,1003
1313,977,1001
1314,979,999
1315,979,1000
1316,979,999
1317,975,997
1318,975,998
1319,972,995
1320,970,995
1321,969,997
1322,970,998
1323,969,998
1324,966,996
1325,962,992
1326,961,990
1327,960,993
1328,960,992
1329,958,993
1330,953,989
1331,948,987
1332,946,989
1333,945,988
1334,947,989
1335,944,990
1336,944,988
1337,940,988
1338,937,988
1339,939,989
1340,942,990
1341,940,994
1342,940,993
1343,938,993
1344,937,994
1345,938,996
1346,941,998
1347,939,997
1348,937,998
1349,936,996
1350,939,998
1351,938,999
1352,940,1000
1353,942,1000
1354,940,1000
1355,938,996
1356,933,997
1357,932,996
1358,930,996
1359,926,996
1360,929,995
1361,941,995
1362,970,995
1363,1015,996
1364,1060,996
1365,1110,997
1366,1168,993
1367,1220,988
1368,1244,982
1369,1232,974
1370,1182,966
1371,1120,964
1372,1059,966
1373,1009,972
1374,978,978
1375,968,988
1376,963,990
1377,953,988
1378,948,986
1379,945,988
1380,945,988
1381,945,990
1382,944,988
1383,938,986
1384,933,988
1385,930,989
1386,927,989
1387,927,991
1388,927,991
1389,923,992
1390,922,994
1391,923,995
1392,921,999
1393,924,998
1394,926,998
1395,926,997
1396,925,997
1397,922,998
1398,919,998
1399,922,1001
1400,926,996
1401,926,995
1402,927,994
1403,926,996
1404,923,995
1405,924,994
1406,927,996
1407,926,995
1408,926,994
1409,925,991
1410,927,992
1411,927,995
1412,927,992
1413,927,992
1414,926,989
1415,926,992
1416,927,994
1417,930,993
1418,930,989
1419,928,988
1420,929,986
1421,926,986
1422,926,990
1423,930,992
1424,933,988
1425,934,987
1426,933,984
1427,932,987
1428,930,990
1429,932,990
1430,933,991
1431,935,989
1432,931,987
1433,930,990
1434,932,994
1435,934,995
1436,938,996
1437,937,993
1438,939,994
1439,938,995
1440,937,997
1441,938,999
1442,940,998
1443,940,994
1444,940,994
1445,939,994
1446,942,997
1447,946,995
1448,949,994
1449,948,992
1450,950,992
1451,950,990
1452,948,992
1453,950,992
1454,953,991
1455,955,991
1456,953,987
1457,955,989
1458,956,988
1459,961,989
1460,964,988
1461,965,985
1462,968,984
1463,968,982
1464,970,982
1465,974,985
1466,975,982
1467,975,979
1468,977,981
1469,978,980
1470,977,982
1471,979,986
1472,983,984
1473,985,984
1474,985,981
1475,985,981
1476,984,983
1477,988,987
1478,990,987
1479,990,986
1480,990,983
1481,987,984
1482,987,985
1483,989,993
1484,991,994
1485,991,993
1486,988,989
1487,988,985
1488,987,991
1489,985,993
1490,983,994
1491,978,995
1492,976,990
1493,975,986
1494,971,989
1495,970,993
1496,970,991
1497,967,990
1498,963,987
1499,961,987
1500,961,989
1501,961,993
1502,962,994
1503,961,992
1504,960,988
1505,957,987
1506,956,988
1507,956,992
1508,957,991
1509,956,988
1510,955,985
1511,952,980
1512,951,984
1513,953,987
1514,954,990
1515,955,988
1516,952,984
1517,949,982
1518,950,987
1519,950,988
1520,951,991
1521,952,990
1522,951,984
1523,949,987
1524,951,990
1525,954,992
1526,958,994
1527,955,995
1528,954,992
1529,954,991
1530,954,992
1531,955,997
1532,958,1002
1533,957,999
1534,956,997
1535,953,994
1536,951,995
1537,956,998
1538,958,999
1539,957,997
1540,956,993
1541,955,988
1542,955,992
1543,956,993
1544,960,993
1545,958,993
1546,956,991
1547,958,990
1548,957,988
1549,957,991
1550,958,994
1551,957,994
1552,957,990
1553,957,988
1554,957,986
1555,959,986
1556,962,989
1557,961,987
1558,959,983
1559,960,984
1560,957,982
1561,960,985
1562,962,987
1563,961,988
1564,960,985
1565,960,982
1566,960,983
1567,960,984
1568,962,988
1569,960,991
1570,960,990
1571,958,992
1572,956,989
1573,960,995
1574,962,994
1575,962,994
1576,959,995
1577,957,991
1578,957,993
1579,961,995
1580,961,997
1581,958,995
1582,958,996
1583,958,994
1584,958,992
1585,958,992
1586,962,992
1587,960,991
1588,958,992
1589,958,990
1590,958,991
1591,959,992
1592,961,990
1593,960,992
1594,959,991
1595,958,990
1596,957,992
1597,959,993
1598,963,991
1599,961,991
1600,960,988
1601,958,987
1602,958,987
1603,961,987
1604,961,986
1605,962,985
1606,959,983
1607,959,985
1608,959,985
1609,961,989
1610,962,988
1611,961,986
1612,960,985
1613,959,987
1614,960,990
1615,961,991
1616,961,992
1617,962,993
1618,959,990
1619,958,995
1620,959,998
1621,959,999
1622,962,997
1623,964,996
1624,960,993
1625,960,994
1626,958,998
1627,959,1000
1628,962,998
1629,960,996
1630,961,992
1631,961,992
1632,960,993
1633,959,996
1634,962,996
1635,963,994
1636,962,989
1637,960,987
1638,958,991
1639,961,993
1640,965,995
1641,966,994
1642,966,989
1643,962,990
1644,964,992
1645,967,995
1646,968,995
1647,968,991
1648,969,987
1649,967,987
1650,969,987
1651,974,990
1652,980,990
1653,984,990
1654,984,986
1655,988,985
1656,993,988
1657,998,994
1658,999,990
1659,998,993
1660,991,989
1661,988,986
1662,986,991
1663,985,993
1664,986,996
1665,984,996
1666,981,993
1667,980,993
1668,979,995
1669,978,999
1670,981,998
1671,977,999
1672,973,997
1673,972,995
1674,967,996
1675,965,999
1676,962,1000
1677,962,999
1678,959,996
1679,957,995
1680,953,992
1681,954,993
1682,954,996
1683,952,998
1684,952,994
1685,950,990
1686,949,989
1687,952,994
1688,954,999
1689,954,997
1690,950,994
1691,947,990
1692,947,989
1693,949,989
1694,952,990
1695,950,989
1696,950,987
1697,950,985
1698,949,984
1699,946,987
1700,947,989
1701,943,992
1702,938,992
1703,938,989
1704,941,987
1705,964,990
1706,997,992
1707,1039,994
1708,1079,993
1709,1127,991
1710,1181,987
1711,1219,986
1712,1224,980
1713,1188,972
1714,1130,967
1715,1077,968
1716,1024,974
1717,984,983
1718,970,996
1719,964,1002
1720,957,1001
1721,950,999
1722,950,1000
1723,952,996
1724,951,996
1725,946,997
1726,941,995
1727,933,994
1728,928,993
1729,930,994
1730,931,997
1731,928,998
1732,929,996
1733,924,995
1734,925,995
1735,927,993
1736,926,993
1737,926,995
1738,924,995
1739,921,992
1740,921,991
1741,924,988
1742,927,988
1743,927,992
1744,926,991
1745,922,990
1746,920,991
1747,920,991
1748,922,992
1749,925,989
1750,926,988
1751,924,989
1752,924,992
1753,921,993
1754,921,993
1755,920,994
1756,920,997
1757,920,996
1758,919,1000
1759,923,1000
1760,924,999
1761,926,997
1762,921,998
1763,921,996
1764,917,1000
1765,922,1003
1766,921,1002
1767,921,1000
1768,916,1000
1769,915,999
1770,920,1001
1771,922,1001
1772,927,1001
1773,927,999
1774,925,995
1775,922,993
1776,919,997
1777,922,999
1778,924,1002
1779,925,998
1780,922,994
1781,923,995
1782,924,994
1783,929,998
1784,926,1000
1785,928,995
1786,927,992
1787,925,987
1788,925,988
1789,925,992
1790,925,992
1791,926,993
1792,925,990
1793,927,986
1794,930,987
1795,934,992
1796,936,994
1797,936,993
1798,934,989
1799,931,987
1800,933,994
1801,935,994
1802,941,997
1803,940,999
1804,942,995
1805,941,995
1806,942,996
1807,945,1002
1808,950,1005
1809,951,1004
1810,953,1001
1811,952,997
1812,950,996
1813,953,1000
1814,960,1003
1815,963,1001
1816,960,997
1817,959,993
1818,958,992
1819,961,995
1820,965,996
1821,964,996
1822,968,992
1823,967,989
1824,968,989
1825,969,995
1826,971,995
1827,971,994
1828,970,993
1829,968,990
1830,966,988
1831,965,990
1832,965,992
1833,963,992
1834,960,986
1835,960,985
1836,957,987
1837,958,990
1838,957,995
1839,952,992
1840,953,993
1841,951,988
1842,948,989
1843,943,996
1844,943,999
1845,941,999
1846,936,996
1847,937,994
1848,935,999
1849,936,1002
1850,940,1007
1851,939,1006
1852,935,1000
1853,934,1000
1854,932,1001
1855,935,1005
1856,934,1008
1857,933,1007
1858,931,1003
1859,930,1003
1860,931,1002
1861,936,1003
1862,936,1004
1863,932,1002
1864,931,998
1865,931,996
1866,933,998
1867,933,1002
1868,928,1002
1869,926,1003
1870,928,1000
1871,928,997
1872,923,998
1873,927,1002
1874,932,1005
1875,933,1001
1876,931,996
1877,928,992
1878,926,993
1879,931,997
1880,937,996
1881,938,998
1882,933,993
1883,927,990
1884,926,996
1885,932,999
1886,935,999
1887,934,999
1888,930,996
1889,927,998
1890,930,999
1891,934,1006
1892,935,1006
1893,936,1007
1894,939,1004
1895,932,1004
1896,932,1004
1897,933,1008
1898,933,1010
1899,933,1006
1900,934,1004
1901,932,1003
1902,933,1005
1903,936,1009
1904,938,1006
1905,938,1002
1906,935,999
1907,934,999
1908,934,1000
1909,935,1005
1910,935,1006
1911,932,1003
1912,930,999
1913,932,1000
1914,931,1002
1915,934,1006
1916,935,1006
1917,938,1003
1918,935,997
1919,932,996
1920,932,998
1921,937,999
1922,936,1000
1923,938,997
1924,939,991
1925,935,997
1926,933,997
1927,931,1002
1928,931,1000
1929,930,997
1930,932,997
1931,933,999
1932,935,1002
1933,935,1004
1934,933,1006
1935,934,1005
1936,935,1004
1937,934,1004
1938,930,1009
1939,928,1011
1940,933,1007
1941,937,1006
1942,936,1003
1943,934,1005
1944,930,1008
1945,931,1010
1946,935,1006
1947,935,1002
1948,931,1002
1949,930,1001
1950,931,1004
1951,931,1005
1952,931,1006
1953,929,1001
1954,928,1000
1955,928,1000
1956,929,1004
1957,929,1004
1958,933,1004
1959,932,1001
1960,930,1000
1961,928,1001
1962,928,1001
1963,932,1002
1964,932,1000
1965,932,1000
1966,932,999
1967,932,996
1968,930,998
1969,934,1000
1970,936,999
1971,940,999
1972,941,997
1973,939,999
1974,939,1002
1975,940,1004
1976,943,1003
1977,946,1004
1978,944,1006
1979,941,1006
1980,944,1010
1981,951,1010
1982,960,1011
1983,966,1009
1984,963,1006
1985,955,1009
1986,947,1007
1987,955,1008
1988,956,1007
1989,959,1008
1990,954,1007
1991,948,1004
1992,944,1003
1993,946,1002
1994,948,1002
1995,944,1003
1996,943,1002
1997,938,1002
1998,934,1002
1999,933,1003
2000,934,1004
2001,932,1004
2002,930,1006
2003,929,1000
2004,926,997
2005,929,998
2006,930,999
2007,931,999
2008,931,1001
2009,929,998
2010,930,995
2011,933,997
2012,932,999
2013,923,996
2014,914,999
2015,914,996
2016,917,998
2017,924,1001
2018,931,1004
2019,934,1006
2020,929,1005
2021,922,1003
2022,917,1005
2023,915,1007
2024,920,1009
2025,919,1013
2026,919,1012
2027,916,1008
2028,917,1009
2029,932,1011
2030,962,1013
2031,1008,1013
2032,1061,1011
2033,1119,1005
2034,1180,1000
2035,1229,997
2036,1237,993
2037,1194,988
2038,1127,986
2039,1065,987
2040,1005,994
2041,966,1005
2042,948,1012
2043,943,1014
2044,931,1007
2045,927,1002
2046,923,1001
2047,923,1004
2048,923,1005
2049,923,1003
2050,916,1002
2051,911,997
2052,906,997
2053,909,1000
2054,913,1002
2055,913,1003
2056,912,1003
2057,911,996
2058,907,999
2059,909,999
2060,911,1003
2061,910,1000
2062,912,998
2063,911,1000
2064,910,1002
2065,910,1006
2066,912,1007
2067,914,1006
2068,910,1009
2069,912,1008
2070,908,1005
2071,910,1010
2072,909,1011
2073,911,1013
2074,909,1010
2075,910,1007
2076,910,1002
2077,908,1005
2078,910,1004
2079,912,1005
2080,911,1003
2081,912,1001
2082,911,1000
2083,913,1000
2084,913,1004
2085,911,1005
2086,913,1003
2087,912,1002
2088,909,1002
2089,911,1008
2090,914,1009
2091,916,1003
2092,918,998
2093,916,995
2094,910,996
2095,910,999
2096,911,998
2097,911,1000
2098,913,995
2099,913,993
2100,913,995
2101,918,999
2102,920,1002
2103,919,1003
2104,919,1000
2105,917,997
2106,918,998
2107,920,1005
2108,924,1007
2109,924,1008
2110,921,1005
2111,919,1003
2112,919,1006
2113,926,1009
2114,929,1010
2115,931,1010
2116,928,1005
2117,930,1001
2118,930,1003
2119,934,1006
2120,935,1007
2121,936,1005
2122,937,1004
2123,935,1000
2124,935,1002
2125,937,1005
2126,937,1004
2127,940,1004
2128,945,1000
2129,948,996
2130,953,999
2131,956,999
2132,958,1000
2133,955,997
2134,956,993
2135,955,990
2136,955,992
2137,958,994
2138,962,994
2139,963,991
2140,965,989
2141,964,986
2142,961,990
2143,963,993
2144,968,995
2145,965,993
2146,964,991
2147,963,989
2148,962,992
2149,961,996
2150,959,999
2151,960,1000
2152,960,997
2153,954,997
2154,952,1003
2155,950,1006
2156,950,1008
2157,950,1006
2158,947,1004
2159,943,1003
2160,942,1004
2161,943,1006
2162,942,1006
2163,941,1006
2164,937,1002
2165,935,1000
2166,930,1001
2167,935,1003
2168,935,1005
2169,939,1001
2170,933,997
2171,932,999
2172,931,1001
2173,931,1006
2174,931,1004
2175,931,1000
2176,933,996
2177,934,995
2178,932,996
2179,934,998
2180,935,997
2181,933,996
2182,931,995
2183,932,993
2184,931,997
2185,935,998
2186,938,998
2187,939,998
2188,935,997
2189,936,998
2190,934,1000
2191,933,1001
2192,937,1002
2193,938,1003
2194,938,1003
2195,933,1005
2196,931,1005
2197,936,1006
2198,939,1004
2199,940,1003
2200,936,1003
2201,934,1004
2202,937,1005
2203,940,1008
2204,944,1007
2205,944,1005
2206,942,1003
2207,939,1001
2208,939,1001
2209,941,1000
2210,941,1001
2211,939,1001
2212,941,1000
2213,941,999
2214,941,998
2215,944,1000
2216,944,1003
2217,942,1002
2218,939,998
2219,939,994
2220,940,992
2221,942,993
2222,944,997
2223,942,997
2224,939,993
2225,937,990
2226,936,991
2227,946,997
2228,947,999
2229,950,999
2230,952,994
2231,954,992
2232,953,995
2233,946,998
2234,942,1003
2235,934,1002
2236,932,1000
2237,931,999
2238,931,1004
2239,936,1004
2240,946,1007
2241,953,1003
2242,963,1002
2243,961,998
2244,950,1001
2245,939,1004
2246,937,1002
2247,937,1000
2248,940,998
2249,946,998
2250,950,1002
2251,951,1005
2252,954,1000
2253,949,998
2254,946,996
2255,939,998
2256,940,1000
2257,942,998
2258,943,995
2259,945,996
2260,945,994
2261,947,995
2262,946,993
2263,947,993
2264,948,993
2265,949,994
2266,951,996
2267,952,991
2268,953,990
2269,953,993
2270,954,996
2271,950,998
2272,949,997
2273,948,995
2274,947,998
2275,950,1000
2276,953,1002
2277,951,1003
2278,950,1001
2279,948,1000
2280,948,1001
2281,951,1005
2282,956,1009
2283,958,1006
2284,957,1001
2285,955,997
2286,954,999
2287,953,1001
2288,959,1003
2289,962,1003
2290,960,997
2291,958,998
2292,960,997
2293,966,1002
2294,973,1005
2295,978,1005
2296,986,1001
2297,989,998
2298,987,998
2299,988,999
2300,984,996
2301,983,994
2302,980,992
2303,978,991
2304,977,993
2305,975,997
2306,974,997
2307,974,994
2308,973,991
2309,974,991
2310,974,992
2311,976,997
2312,973,998
2313,970,995
2314,969,995
2315,969,997
2316,967,999
2317,968,1002
2318,963,1003
2319,955,1001
2320,951,999
2321,953,1000
2322,951,1002
2323,950,1006
2324,953,1002
2325,949,1003
2326,951,999
2327,947,998
2328,948,1002
2329,949,1005
2330,952,1001
2331,950,999
2332,949,996
2333,947,995
2334,949,997
2335,951,998
2336,955,999
2337,951,996
2338,947,995
2339,940,996
2340,936,998
2341,934,1000
2342,948,999
2343,980,997
2344,1026,994
2345,1088,993
2346,1163,993
2347,1243,993
2348,1297,990
2349,1299,982
2350,1250,980
2351,1174,977
2352,1102,978
2353,1048,987
2354,1021,993
2355,1011,997
2356,1004,997
2357,990,997
2358,984,998
2359,979,1002
2360,977,1003
2361,970,1004
2362,963,1003
2363,953,1002
2364,949,1001
2365,948,1003
2366,945,1004
2367,948,1005
2368,945,1003
2369,943,1001
2370,939,999
2371,941,1000
2372,942,1001
2373,943,1001
2374,944,999
2375,940,998
2376,938,1000
2377,941,1000
2378,941,1000
2379,939,1003
2380,937,999
2381,939,995
2382,938,994
2383,940,996
2384,942,997
2385,943,998
2386,941,994
2387,941,990
2388,939,991
2389,942,993
2390,944,995
2391,946,996
2392,943,992
2393,941,992
2394,940,993
2395,942,996
2396,946,997
2397,946,996
2398,945,994
2399,941,993
2400,940,996
2401,944,1000
2402,945,1004
2403,942,1003
2404,940,1000
2405,940,999
2406,941,999
2407,941,1002
2408,946,1005
2409,945,1002
2410,946,999
2411,945,995
2412,946,1000
2413,945,1000
2414,946,999
2415,947,997
2416,947,994
2417,945,993
2418,947,995
2419,949,998
2420,952,997
2421,949,996
2422,950,994
2423,952,995
2424,953,995
2425,958,998
2426,960,1000
2427,961,995
2428,960,989
2429,959,988
2430,960,990
2431,968,992
2432,972,994
2433,973,991
2434,972,989
2435,971,986
2436,972,991
2437,978,993
2438,983,993
2439,986,991
2440,986,991
2441,986,992
2442,987,995
2443,993,1000
2444,997,999
2445,1001,998
2446,999,997
2447,999,994
2448,1002,1000
2449,1002,1001
2450,1003,998
2451,1006,1000
2452,1006,998
2453,1008,996
2454,1008,996
2455,1006,997
2456,1011,996
2457,1006,994
2458,1006,990
2459,1006,991
2460,1004,994
2461,1002,994
2462,999,995
2463,998,994
2464,995,991
2465,991,993
2466,986,995
2467,985,996
2468,984,994
2469,982,991
2470,978,990
2471,975,988
2472,972,990
2473,970,991
2474,971,991
2475,970,989
2476,968,990
2477,965,990
2478,959,993
2479,961,993
2480,962,995
2481,964,993
2482,966,996
2483,962,996
2484,960,996
2485,960,999
2486,963,997
2487,962,996
2488,958,996
2489,955,999
2490,953,999
2491,956,999
2492,958,999
2493,957,1000
2494,959,999
2495,959,997
2496,958,999
2497,958,998
2498,960,997
2499,959,996
2500,958,996
2501,957,995
2502,957,996
2503,958,996
2504,961,996
2505,959,996
2506,960,996
2507,961,996
2508,959,996
2509,962,997
2510,961,994
2511,962,995
2512,965,992
2513,963,991
2514,961,989
2515,959,988
2516,962,990
2517,962,992
2518,963,991
2519,965,988
2520,962,986
2521,963,990
2522,965,992
2523,967,993
2524,967,995
2525,967,989
2526,964,990
2527,962,995
2528,964,998
2529,965,999
2530,968,997
2531,962,997
2532,962,996
2533,965,1001
2534,969,1003
2535,969,1003
2536,966,1000
2537,964,999
2538,962,996
2539,964,1001
2540,969,999
2541,968,998
2542,967,992
2543,964,988
2544,962,993
2545,964,996
2546,968,997
2547,967,995
2548,964,988
2549,963,990
2550,962,993
2551,964,996
2552,965,994
2553,966,989
2554,967,987
2555,965,988
2556,965,989
2557,969,991
2558,968,991
2559,968,989
2560,964,989
2561,963,987
2562,964,990
2563,966,992
2564,967,991
2565,968,992
2566,967,991
2567,966,992
2568,964,995
2569,966,998
2570,965,998
2571,966,997
2572,966,996
2573,965,998
2574,964,999
2575,964,1000
2576,965,1002
2577,966,1001
2578,965,999
2579,966,998
2580,962,996
2581,964,996
2582,966,993
2583,967,995
2584,967,995
2585,963,994
2586,964,993
2587,964,993
2588,965,992
2589,968,993
2590,967,996
2591,963,994
2592,964,994
2593,965,992
2594,970,993
2595,972,990
2596,972,988
2597,970,988
2598,967,988
2599,971,987
2600,974,989
2601,975,989
2602,973,989
2603,970,986
2604,970,984
2605,974,989
2606,978,990
2607,986,993
2608,994,992
2609,997,993
2610,997,997
2611,993,997
2612,994,999
2613,994,997
2614,994,997
2615,992,993
2616,987,996
2617,982,995
2618,983,998
2619,983,999
2620,981,998
2621,979,997
2622,978,995
2623,980,996
2624,982,995
2625,978,995
2626,974,994
2627,966,991
2628,964,989
2629,965,992
2630,963,996
2631,963,995
2632,958,993
2633,957,990
2634,957,990
2635,956,988
2636,957,991
2637,958,993
2638,960,991
2639,961,985
2640,956,986
2641,956,984
2642,961,989
2643,961,989
2644,957,987
2645,955,982
2646,954,984
2647,954,985
2648,957,988
2649,957,990
2650,958,991
2651,955,988
2652,953,990
2653,953,994
2654,951,995
2655,957,996
2656,983,996
2657,1027,994
2658,1088,997
2659,1163,1000
2660,1239,999
2661,1289,995
2662,1285,984
2663,1233,977
2664,1162,973
2665,1096,979
2666,1045,986
2667,1020,992
2668,1013,994
2669,1005,991
2670,995,990
2671,987,992
2672,983,993
2673,982,994
2674,977,992
2675,970,990
2676,967,989
2677,966,995
2678,964,994
2679,963,993
2680,960,988
2681,961,984
2682,963,985
2683,962,986
2684,952,989
2685,939,987
2686,930,985
2687,925,984
2688,925,985
2689,929,987
2690,933,989
2691,934,990
2692,934,990
2693,933,988
2694,934,991
2695,935,993
2696,939,997
2697,940,998
2698,940,996
2699,940,995
2700,940,995
2701,941,999
2702,941,998
2703,943,998
2704,941,994
2705,937,993
2706,937,996
2707,942,999
2708,944,999
2709,942,998
2710,942,993
2711,940,990
2712,941,993
2713,942,996
2714,941,997
2715,941,995
2716,940,992
2717,940,990
2718,937,992
2719,937,995
2720,938,996
2721,936,994
2722,937,989
2723,938,988
2724,938,990
2725,940,992
2726,943,991
2727,944,991
2728,940,985
2729,937,984
2730,935,987
2731,941,990
2732,943,991
2733,942,988
2734,941,987
2735,940,984
2736,937,988
2737,942,993
2738,944,993
2739,946,992
2740,946,991
2741,943,989
2742,945,993
2743,950,998
2744,951,1000
2745,952,999
2746,952,997
2747,952,996
2748,958,996
2749,960,1001
2750,961,1001
2751,959,1000
2752,958,996
2753,960,994
2754,960,994
2755,968,996
2756,974,996
2757,977,998
2758,982,994
2759,982,990
2760,979,991
2761,986,993
2762,991,993
2763,990,993
2764,988,989
2765,985,988
2766,982,991
2767,984,995
2768,989,992
2769,992,986
2770,989,985
2771,989,981
2772,988,986
2773,990,988
2774,991,988
2775,992,988
2776,989,985
2777,986,985
2778,985,987
2779,986,989
2780,980,991
2781,973,990
2782,964,990
2783,956,991
2784,957,996
2785,960,999
2786,961,999
2787,957,996
2788,955,996
2789,954,994
2790,954,998
2791,952,1002
2792,951,1001
2793,951,1002
2794,951,999
2795,953,996
2796,950,997
2797,950,1001
2798,951,1000
2799,951,996
2800,949,992
2801,947,993
2802,947,996
2803,950,997
2804,948,998
2805,946,994
2806,943,991
2807,944,992
2808,943,997
2809,943,996
2810,947,995
2811,949,991
2812,947,988
2813,945,987
2814,941,989
2815,945,989
2816,949,989
2817,951,991
2818,950,990
2819,945,989
2820,946,990
2821,945,992
2822,948,992
2823,949,993
2824,950,993
2825,946,995
2826,943,997
2827,947,1001
2828,950,1001
2829,952,1000
2830,952,1001
2831,950,1001
2832,949,999
2833,947,1002
2834,951,1002
2835,952,1003
2836,952,1001
2837,953,1000
2838,953,999
2839,955,999
2840,955,998
2841,956,996
2842,956,996
2843,953,996
2844,950,996
2845,952,997
2846,953,996
2847,954,1000
2848,957,997
2849,956,996
2850,957,993
2851,957,995
2852,956,995
2853,956,996
2854,951,995
2855,954,989
2856,957,988
2857,957,990
2858,959,993
2859,956,993
2860,953,993
2861,949,991
2862,949,989
2863,955,990
2864,959,996
2865,959,996
2866,956,994
2867,951,995
2868,950,996
2869,949,999
2870,953,1001
2871,951,1004
2872,950,1003
2873,945,998
2874,947,997
2875,952,1002
2876,955,1002
2877,959,1004
2878,961,1002
2879,962,999
2880,963,1001
2881,973,1001
2882,982,1004
2883,978,1003
2884,966,1001
2885,952,994
2886,943,994
2887,936,995
2888,933,998
2889,936,996
2890,940,995
2891,944,995
2892,947,994
2893,952,999
2894,958,999
2895,965,997
2896,964,992
2897,955,990
2898,944,990
2899,942,991
2900,948,992
2901,951,991
2902,950,987
2903,949,989
2904,948,992
2905,954,996
2906,956,996
2907,956,996
2908,958,996
2909,958,996
2910,958,998
2911,960,1002
2912,960,1004
2913,959,1001
2914,956,999
2915,956,999
2916,961,1003
2917,965,1005
2918,974,1005
2919,983,1005
2920,989,1001
2921,985,1001
2922,981,1002
2923,981,1000
2924,981,1001
2925,981,996
2926,980,996
2927,977,995
2928,974,997
2929,974,997
2930,974,997
2931,975,995
2932,974,995
2933,971,994
2934,967,997
2935,965,994
2936,963,993
2937,962,991
2938,955,991
2939,950,989
2940,949,992
2941,951,990
2942,953,992
2943,954,992
2944,954,993
2945,952,991
2946,948,990
2947,950,990
2948,952,993
2949,952,996
2950,951,998
2951,949,995
2952,946,995
2953,946,997
2954,951,1000
2955,953,1003
2956,952,999
2957,948,996
2958,948,1000
2959,948,1002
2960,947,1002
2961,945,1001
2962,942,1001
2963,935,997
2964,936,995
2965,951,997
2966,989,999
2967,1040,999
2968,1094,999
2969,1155,995
2970,1219,990
2971,1266,986
2972,1268,982
2973,1223,977
2974,1158,972
2975,1091,970
2976,1033,976
2977,1003,987
2978,999,995
2979,991,996
2980,980,995
2981,976,989
2982,970,987
2983,965,989
2984,958,993
2985,952,995
2986,947,989
2987,944,988
2988,943,989
2989,943,990
2990,942,995
2991,939,993
2992,934,995
2993,928,992
2994,927,993
2995,931,997
2996,934,1001
2997,935,999
2998,937,999
2999,937,997
3000,935,997
3001,936,999
3002,936,1001
3003,932,1003
3004,931,1001
3005,929,999
3006,929,998
3007,930,995
3008,934,996
3009,934,1000
3010,934,997
3011,934,993
3012,934,993
3013,937,996
3014,938,995
3015,935,998
3016,933,995
3017,931,994
3018,929,993
3019,931,995
3020,933,995
3021,932,999
3022,933,997
3023,929,993
3024,929,992
3025,930,989
3026,934,992
3027,937,993
3028,936,989
3029,936,989
3030,933,990
3031,934,990
3032,936,991
3033,941,989
3034,938,988
3035,936,989
3036,935,992
3037,937,991
3038,939,994
3039,940,996
3040,941,997
3041,939,997
3042,939,996
3043,940,997
3044,942,998
3045,943,1000
3046,943,1000
3047,943,998
3048,943,997
3049,945,999
3050,948,1001
3051,950,1002
3052,952,1001
3053,950,997
3054,950,998
3055,953,998
3056,958,998
3057,961,997
3058,960,995
3059,960,996
3060,959,995
3061,962,997
3062,965,994
3063,966,995
3064,967,993
3065,967,994
3066,966,996
3067,969,997
3068,973,992
3069,976,993
3070,980,990
3071,981,987
3072,981,992
3073,986,990
3074,989,989
3075,989,988
3076,985,987
3077,984,986
3078,985,987
3079,993,990
3080,998,990
3081,1000,992
3082,1002,988
3083,1002,991
3084,1002,992
3085,1003,996
3086,999,996
3087,995,996
3088,992,995
3089,988,996
3090,987,999
3091,987,1000
3092,989,1003
3093,991,998
3094,990,997
3095,983,997
3096,975,1001
3097,972,1001
3098,970,1000
3099,970,998
3100,968,996
3101,967,997
3102,964,997
3103,965,999
3104,964,999
3105,964,998
3106,961,997
3107,960,994
3108,958,997
3109,963,1001
3110,964,1002
3111,960,998
3112,960,996
3113,961,992
3114,958,996
3115,960,998
3116,962,997
3117,960,992
3118,958,992
3119,956,989
3120,957,991
3121,958,994
3122,961,996
3123,962,993
3124,962,991
3125,958,992
3126,957,995
3127,959,1000
3128,960,1000
3129,963,999
3130,958,999
3131,958,1000
3132,958,1003
3133,961,1005
3134,965,1007
3135,966,1003
3136,964,1001
3137,964,999
3138,959,1004
3139,964,1006
3140,965,1005
3141,967,1004
3142,964,1000
3143,963,999
3144,965,1002
3145,965,1003
3146,968,1002
3147,971,1001
3148,969,998
3149,964,998
3150,963,1001
3151,961,1002
3152,961,1005
3153,964,1000
3154,962,997
3155,963,995
3156,966,996
3157,968,1000
3158,971,1000
3159,965,998
3160,967,992
3161,962,990
3162,966,990
3163,969,995
3164,970,998
3165,969,995
3166,970,994
3167,968,991
3168,962,992
3169,964,995
3170,966,999
3171,965,998
3172,968,996
3173,966,995
3174,965,996
3175,968,1003
3176,971,1007
3177,970,1006
3178,965,1004
3179,963,1002
3180,962,1001
3181,963,1004
3182,968,1008
3183,967,1008
3184,966,1004
3185,965,1002
3186,964,1001
3187,965,1008
3188,966,1005
3189,968,1003
3190,970,1000
3191,968,999
3192,967,998
3193,968,1000
3194,970,1003
3195,967,1002
3196,965,1001
3197,965,999
3198,964,996
3199,965,1001
3200,967,1004
3201,968,1002
3202,967,998
3203,966,994
3204,966,992
3205,969,994
3206,969,998
3207,970,998
3208,965,996
3209,960,991
3210,958,994
3211,961,995
3212,962,999
3213,964,998
3214,963,996
3215,963,993
3216,963,993
3217,964,998
3218,968,1003
3219,968,1004
3220,966,1003
3221,965,1001
3222,962,1001
3223,966,1004
3224,966,1007
3225,969,1007
3226,970,1006
3227,969,1003
3228,967,1001
3229,968,1006
3230,970,1007
3231,971,1007
3232,970,1004
3233,968,999
3234,969,1000
3235,974,1002
3236,975,1006
3237,972,1003
3238,971,1002
3239,971,1000
3240,974,997
3241,982,1000
3242,989,1003
3243,995,1005
3244,1000,1003
3245,1003,1001
3246,1001,999
3247,1001,999
3248,998,1001
3249,1000,1000
3250,997,994
3251,997,994
3252,991,992
3253,991,994
3254,988,997
3255,987,996
3256,983,996
3257,985,994
3258,982,992
3259,983,992
3260,982,997
3261,979,999
3262,976,998
3263,970,999
3264,966,998
3265,964,1000
3266,963,1002
3267,963,1003
3268,960,1005
3269,959,1006
3270,957,1002
3271,961,1004
3272,962,1004
3273,961,1004
3274,960,1006
3275,960,1005
3276,956,1003
3277,961,1004
3278,962,1003
3279,962,1002
3280,959,1001
3281,959,999
3282,957,1002
3283,959,999
3284,964,1001
3285,964,999
3286,961,1001
3287,957,1001
3288,957,999
3289,956,1001
3290,953,1001
3291,948,1002
3292,947,1002
3293,950,1000
3294,964,997
3295,998,998
3296,1038,1000
3297,1082,998
3298,1133,994
3299,1190,992
3300,1236,988
3301,1253,980
3302,1227,973
3303,1171,967
3304,1109,969
3305,1057,972
3306,1016,980
3307,995,993
3308,993,999
3309,990,999
3310,987,1000
3311,982,1000
3312,975,1003
3313,968,1005
3314,966,1007
3315,961,1003
3316,955,1004
3317,950,1002
3318,945,1003
3319,937,1007
3320,938,1008
3321,938,1006
3322,940,1004
3323,940,1004
3324,935,1003
3325,936,1006
3326,937,1004
3327,939,1000
3328,938,998
3329,936,996
3330,936,998
3331,938,1002
3332,938,1006
3333,937,1001
3334,936,998
3335,933,997
3336,933,999
3337,935,1003
3338,937,1002
3339,939,1001
3340,940,998
3341,940,995
3342,938,996
3343,936,999
3344,941,1002
3345,941,998
3346,938,997
3347,937,995
3348,936,996
3349,937,997
3350,938,999
3351,941,997
3352,940,995
3353,940,993
3354,938,993
3355,940,998
3356,942,1003
3357,943,1005
3358,942,1003
3359,942,1001
3360,939,1000
3361,942,1003
3362,946,1010
3363,948,1008
3364,947,1006
3365,943,1001
3366,941,1003
3367,941,1005
3368,942,1009
3369,943,1008
3370,944,1006
3371,942,1002
3372,940,999
3373,942,1001
3374,942,1004
3375,945,1003
3376,945,1001
3377,943,999
3378,944,998
3379,946,1000
3380,948,1002
3381,949,1001
3382,949,1001
3383,948,1001
3384,949,999
3385,950,999
3386,951,1000
3387,953,997
3388,954,996
3389,954,995
3390,953,992
3391,954,993
3392,957,993
3393,961,996
3394,963,995
3395,964,994
3396,964,993
3397,968,994
3398,971,994
3399,973,994
3400,971,995
3401,972,996
3402,971,997
3403,970,997
3404,975,1001
3405,979,999
3406,977,999
3407,981,1001
3408,981,1003
3409,983,1002
3410,986,1003
3411,989,1002
3412,989,1002
3413,988,1000
3414,989,1003
3415,990,1002
3416,994,1001
3417,996,1000
3418,995,999
3419,994,996
3420,992,997
3421,994,999
3422,990,999
3423,990,995
3424,989,995
3425,982,995
3426,976,999
3427,974,1001
3428,974,1002
3429,976,1001
3430,975,998
3431,974,998
3432,969,998
3433,972,1000
3434,969,999
3435,966,997
3436,963,994
3437,961,995
3438,958,994
3439,960,999
3440,958,1000
3441,959,995
3442,963,992
3443,961,993
3444,959,994
3445,959,997
3446,959,999
3447,958,998
3448,960,998
3449,956,996
3450,951,997
3451,954,1002
3452,953,1008
3453,953,1007
3454,954,1005
3455,953,1002
3456,952,1001
3457,953,1005
3458,959,1010
3459,963,1008
3460,960,1006
3461,959,1005
3462,956,1006
3463,956,1004
3464,957,1008
3465,960,1009
3466,958,1007
3467,955,1003
3468,955,1002
3469,958,1002
3470,962,1004
3471,961,1006
3472,959,1003
3473,957,1004
3474,955,1001
3475,957,1004
3476,960,1004
3477,959,1004
3478,957,1004
3479,955,999
3480,954,1000
3481,957,998
3482,957,1000
3483,961,998
3484,960,1001
3485,961,998
3486,959,995
3487,962,997
3488,962,999
3489,963,996
3490,963,997
3491,962,997
3492,958,998
3493,959,999
3494,961,1001
3495,965,1000
3496,965,1002
3497,964,1003
3498,962,1002
3499,965,1004
3500,966,1008
3501,966,1008
3502,961,1007
3503,961,1007
3504,962,1006
3505,968,1006
3506,968,1009
3507,968,1008
3508,963,1008
3509,962,1008
3510,959,1009
3511,957,1005
3512,957,1006
3513,961,1004
3514,960,1004
3515,961,1001
3516,960,1003
3517,965,1003
3518,967,1005
3519,967,1001
3520,966,1003
3521,963,1003
3522,962,1000
3523,962,1004
3524,965,1002
3525,963,999
3526,962,999
3527,960,999
3528,960,997
3529,959,999
3530,960,997
3531,959,997
3532,961,994
3533,962,995
3534,962,995
3535,958,997
3536,961,999
3537,958,997
3538,961,998
3539,958,998
3540,959,1001
3541,960,1000
3542,963,1004
3543,961,1003
3544,961,1004
3545,961,1006
3546,957,1004
3547,959,1006
3548,959,1007
3549,960,1006
3550,962,1006
3551,961,1008
3552,960,1006
3553,960,1007
3554,962,1006
3555,964,1004
3556,965,1003
3557,960,1004
3558,957,1003
3559,963,1004
3560,969,1004
3561,970,1003
3562,970,1001
3563,968,1002
3564,963,1005
3565,963,1006
3566,969,1005
3567,969,1004
3568,969,1005
3569,967,1002
3570,966,1000
3571,970,1000
3572,981,998
3573,984,996
3574,987,998
3575,993,1000
3576,997,1000
3577,995,998
3578,989,999
3579,985,996
3580,981,996
3581,978,995
3582,975,997
3583,976,998
3584,976,999
3585,978,999
3586,978,1000
3587,976,1001
3588,973,1005
3589,973,1005
3590,970,1005
3591,968,1005
3592,967,1005
3593,964,1006
3594,961,1005
3595,956,1007
3596,956,1007
3597,956,1005
3598,958,1003
3599,956,1004
3600,952,1004
3601,954,1002
3602,957,1003
3603,960,1003
3604,955,1001
3605,952,1000
3606,950,1001
3607,949,1003
3608,947,1002
3609,950,1002
3610,953,1000
3611,952,999
3612,949,1001
3613,947,1003
3614,952,1004
3615,958,1002
3616,958,998
3617,955,995
3618,947,995
3619,944,999
3620,941,998
3621,941,996
3622,940,997
3623,947,996
3624,968,997
3625,1008,1000
3626,1055,1002
3627,1109,1000
3628,1173,996
3629,1230,992
3630,1257,993
3631,1241,990
3632,1194,985
3633,1138,983
3634,1084,984
3635,1030,991
3636,995,1000
3637,985,1012
3638,980,1014
3639,971,1013
3640,963,1009
3641,958,1006
3642,957,1006
3643,953,1010
3644,948,1009
3645,940,1006
3646,935,1002
3647,934,1003
3648,932,1002
3649,935,1002
3650,937,1007
3651,934,1002
3652,934,1000
3653,931,998
3654,929,1001
3655,929,1003
3656,929,1004
3657,928,1001
3658,930,999
3659,932,995
3660,931,997
3661,932,998
3662,936,998
3663,938,996
3664,938,995
3665,936,994
3666,934,994
3667,931,997
3668,928,999
3669,927,997
3670,927,994
3671,929,997
3672,928,998
3673,929,1000
3674,931,1003
3675,936,1001
3676,934,1002
3677,933,1001
3678,933,1001
3679,931,1006
3680,934,1009
3681,934,1008
3682,931,1006
3683,927,1005
3684,927,1006
3685,929,1009
3686,930,1010
3687,931,1007
3688,931,1005
3689,930,1001
3690,930,1002
3691,933,1003
3692,934,1004
3693,936,1001
3694,936,1001
3695,932,999
3696,929,999
3697,935,1001
3698,935,1003
3699,940,1002
3700,940,1000
3701,940,998
3702,938,997
3703,937,1002
3704,940,1000
3705,942,997
3706,942,996
3707,943,992
3708,943,995
3709,945,998
3710,947,1000
3711,949,995
3712,951,994
3713,948,994
3714,947,997
3715,951,998
3716,954,999
3717,955,996
3718,957,995
3719,957,996
3720,958,1000
3721,962,1003
3722,963,1009
3723,967,1007
3724,969,1004
3725,969,1002
3726,968,1002
3727,971,1005
3728,973,1006
3729,977,1004
3730,984,1002
3731,980,1003
3732,978,1002
3733,978,1004
3734,979,1006
3735,984,1001
3736,986,997
3737,987,995
3738,984,994
3739,985,1000
3740,987,1001
3741,989,1000
3742,988,998
3743,988,997
3744,987,996
3745,986,996
3746,989,1001
3747,987,998
3748,984,996
3749,979,992
3750,975,992
3751,974,995
3752,975,999
3753,977,997
3754,975,994
3755,969,992
3756,966,993
3757,964,997
3758,965,999
3759,963,1001
3760,963,1000
3761,961,993
3762,957,997
3763,957,999
3764,956,1003
3765,959,1006
3766,957,1006
3767,953,1003
3768,951,1004
3769,951,1005
3770,953,1010
3771,956,1011
3772,953,1011
3773,954,1005
3774,952,1007
3775,952,1012
3776,954,1012
3777,951,1014
3778,950,1009
3779,950,1005
3780,950,1003
3781,951,1004
3782,954,1006
3783,955,1007
3784,953,1005
3785,949,1002
3786,947,1002
3787,946,1005
3788,951,1009
3789,955,1009
3790,956,1007
3791,954,1004
3792,952,1002
3793,954,1002
3794,955,1005
3795,958,1003
3796,956,1002
3797,955,998
3798,951,995
3799,954,997
3800,958,999
3801,961,1002
3802,959,1003
3803,958,998
3804,955,998
3805,957,999
3806,958,1001
3807,960,1002
3808,961,1001
3809,957,1000
3810,958,1003
3811,957,1004
3812,960,1006
3813,960,1007
3814,961,1010
3815,960,1007
3816,960,1006
3817,959,1006
3818,959,1012
3819,959,1012
3820,960,1014
3821,959,1009
3822,957,1009
3823,959,1007
3824,960,1009
3825,962,1005
3826,961,1010
3827,960,1004
3828,956,1001
3829,960,1003
3830,960,1006
3831,963,1006
3832,962,1008
3833,961,1005
3834,956,1003
3835,955,1004
3836,960,1005
3837,958,1005
3838,961,1004
3839,961,999
3840,958,996
3841,958,995
3842,958,1000
3843,957,1002
3844,957,1000
3845,960,999
3846,958,998
3847,959,999
3848,960,1001
3849,961,1002
3850,959,1001
3851,960,1001
3852,956,1000
3853,958,1001
3854,958,1004
3855,960,1007
3856,958,1008
3857,955,1007
3858,957,1004
3859,956,1007
3860,959,1010
3861,960,1011
3862,961,1012
3863,962,1009
3864,958,1008
3865,959,1008
3866,960,1010
3867,960,1012
3868,959,1010
3869,958,1007
3870,955,1005
3871,956,1005
3872,959,1006
3873,960,1007
3874,957,1007
3875,958,1004
3876,955,1003
3877,957,1005
3878,959,1008
3879,962,1007
3880,961,1010
3881,960,1004
3882,957,998
3883,956,999
3884,960,1002
3885,960,1002
3886,960,1002
3887,962,1001
3888,962,997
3889,964,997
3890,964,1000
3891,962,1003
3892,961,1003
3893,959,998
3894,960,998
3895,962,1001
3896,967,1005
3897,970,1008
3898,967,1008
3899,967,1006
3900,964,1005
3901,966,1009
3902,972,1011
3903,977,1015
3904,981,1013
3905,986,1008
3906,990,1009
3907,996,1010
3908,997,1012
3909,996,1015
3910,990,1013
3911,991,1007
3912,989,1005
3913,987,1006
3914,985,1007
3915,984,1007
3916,983,1005
3917,979,1001
3918,979,1003
3919,980,1002
3920,981,1005
3921,979,1007
3922,977,1006
3923,972,1001
3924,968,1001
3925,968,1000
3926,965,1004
3927,965,1003
3928,963,1001
3929,961,998
3930,959,996
3931,958,996
3932,961,1002
3933,963,1003
3934,964,1003
3935,961,998
3936,957,998
3937,956,1000
3938,958,1005
3939,961,1005
3940,960,1004
3941,957,1001
3942,956,1005
3943,955,1007
3944,956,1010
3945,959,1013
3946,957,1009
3947,953,1007
3948,951,1007
3949,949,1009
3950,947,1013
3951,946,1016
3952,945,1014
3953,952,1009
3954,975,1007
3955,1016,1008
3956,1062,1011
3957,1120,1013
3958,1186,1006
3959,1243,998
3960,1262,991
3961,1231,984
3962,1171,982
3963,1114,986
3964,1060,989
3965,1021,993
3966,1005,1000
3967,1002,1008
3968,997,1010
3969,991,1006
3970,986,1002
3971,979,996
3972,975,999
3973,970,1001
3974,963,1003
3975,959,1004
3976,951,999
3977,948,998
3978,945,999
3979,946,1000
3980,947,1004
3981,949,1003
3982,947,1001
3983,945,999
3984,942,1001
3985,943,1007
3986,944,1011
3987,945,1010
3988,944,1006
3989,940,1009
3990,940,1006
3991,942,1010
3992,943,1014
3993,943,1014
3994,943,1010
3995,943,1003
3996,944,1006
3997,946,1012
3998,947,1011
3999,944,1009
4000,943,1007
4001,944,1004
4002,941,1006
4003,944,1007
4004,940,1008
4005,947,1008
4006,946,1006
4007,947,1001
4008,944,1004
4009,947,1007
4010,946,1011
4011,945,1008
4012,942,1001
4013,941,996
4014,941,1000
4015,941,1000
4016,945,1003
4017,946,1001
4018,948,999
4019,948,1000
4020,945,1000
4021,946,1003
4022,949,1003
4023,950,999
4024,951,1000
4025,946,999
4026,944,1002
4027,945,1007
4028,948,1010
4029,951,1007
4030,951,1008
4031,951,1004
4032,950,1006
4033,953,1010
4034,955,1014
4035,955,1010
4036,956,1010
4037,955,1007
4038,954,1008
4039,957,1009
4040,960,1012
4041,963,1010
4042,965,1005
4043,965,1005
4044,962,1005
4045,968,1003
4046,971,1006
4047,975,1006
4048,977,1001
4049,975,1001
4050,974,1003
4051,976,1007
4052,983,1004
4053,986,1004
4054,988,1001
4055,991,999
4056,993,999
4057,992,998
4058,995,999
4059,996,997
4060,995,995
4061,997,996
4062,993,997
4063,993,999
4064,999,996
4065,1001,996
4066,1003,996
4067,1003,996
4068,1001,998
4069,1001,999
4070,1004,1002
4071,1003,1003
4072,998,1002
4073,995,1003
4074,989,1003
4075,990,1007
4076,989,1006
4077,990,1006
4078,986,1008
4079,981,1007
4080,980,1006
4081,978,1006
4082,977,1007
4083,976,1006
4084,972,1009
4085,968,1008
4086,966,1006
4087,964,1003
4088,968,1007
4089,967,1006
4090,964,1007
4091,962,1005
4092,958,1005
4093,957,1004
4094,960,1005
4095,962,1006
4096,959,1006
4097,959,1002
4098,956,996
4099,956,999
4100,959,1002
4101,962,1002
4102,962,1004
4103,958,1001
4104,955,998
4105,956,997
4106,957,1003
4107,957,1004
4108,961,1003
4109,959,999
4110,957,999
4111,956,1006
4112,959,1007
4113,964,1010
4114,964,1011
4115,960,1009
4116,957,1007
4117,960,1011
4118,963,1012
4119,963,1013
4120,962,1013
4121,961,1008
4122,960,1006
4123,961,1008
4124,963,1012
4125,964,1012
4126,966,1011
4127,965,1009
4128,963,1005
4129,967,1008
4130,968,1008
4131,968,1008
4132,965,1008
4133,961,1006
4134,959,1003
4135,961,1004
4136,965,1008
4137,967,1009
4138,970,1008
4139,968,1006
4140,964,1004
4141,965,1005
4142,968,1006
4143,970,1005
4144,970,1003
4145,967,997
4146,964,998
4147,965,998
4148,968,1004
4149,969,1003
4150,969,1000
4151,968,999
4152,966,999
4153,969,1003
4154,970,1006
4155,971,1009
4156,969,1009
4157,966,1008
4158,965,1006
4159,965,1011
4160,967,1013
4161,970,1013
4162,968,1012
4163,966,1008
4164,964,1008
4165,967,1010
4166,969,1016
4167,969,1015
4168,969,1011
4169,967,1008
4170,967,1004
4171,965,1006
4172,967,1009
4173,969,1008
4174,968,1008
4175,968,1001
4176,964,1003
4177,966,1006
4178,966,1007
4179,968,1008
4180,969,1006
4181,966,1004
4182,963,1005
4183,969,1003
4184,971,1005
4185,972,1005
4186,972,1003
4187,969,999
4188,965,996
4189,967,1000
4190,968,1004
4191,971,1004
4192,969,1003
4193,965,1000
4194,964,999
4195,967,1002
4196,967,1008
4197,969,1006
4198,969,1005
4199,968,1004
4200,967,1004
4201,967,1010
4202,968,1013
4203,966,1012
4204,970,1010
4205,967,1009
4206,967,1009
4207,967,1013
4208,968,1014
4209,969,1014
4210,970,1012
4211,967,1008
4212,966,1006
4213,968,1007
4214,968,1009
4215,972,1009
4216,973,1009
4217,970,1005
4218,968,1005
4219,970,1008
4220,973,1011
4221,974,1012
4222,974,1009
4223,974,1005
4224,975,1005
4225,975,1009
4226,979,1012
4227,984,1008
4228,988,1004
4229,990,1002
4230,994,999
4231,1000,1005
4232,1006,1006
4233,1006,1008
4234,1003,1005
4235,1000,999
4236,995,1000
4237,993,1002
4238,991,1006
4239,992,1006
4240,992,1003
4241,992,1003
4242,991,1004
4243,992,1008
4244,991,1011
4245,986,1012
4246,983,1010
4247,978,1009
4248,974,1011
4249,972,1012
4250,967,1013
4251,970,1010
4252,971,1011
4253,971,1010
4254,970,1010
4255,972,1011
4256,973,1011
4257,971,1006
4258,971,1009
4259,966,1007
4260,964,1006
4261,966,1008
4262,968,1007
4263,969,1007
4264,970,1006
4265,968,1007
4266,967,1007
4267,965,1008
4268,966,1008
4269,969,1004
4270,969,1003
4271,965,1003
4272,959,1002
4273,956,1005
4274,953,1005
4275,960,1003
4276,972,1006
4277,998,1004
4278,1030,1004
4279,1081,1005
4280,1144,1006
4281,1214,1000
4282,1262,994
4283,1267,988
4284,1223,982
4285,1158,982
4286,1099,985
4287,1058,992
4288,1035,1003
4289,1028,1011
4290,1025,1014
4291,1019,1014
4292,1014,1011
4293,1010,1012
4294,1003,1012
4295,995,1011
4296,982,1011
4297,975,1011
4298,969,1012
4299,968,1011
4300,967,1010
4301,964,1009
4302,960,1008
4303,960,1007
4304,958,1008
4305,961,1009
4306,960,1010
4307,958,1007
4308,955,1005
4309,956,1008
4310,957,1008
4311,955,1006
4312,956,1008
4313,956,1003
4314,953,1006
4315,954,1004
4316,953,1003
4317,955,1002
4318,954,999
4319,951,1001
4320,952,1001
4321,951,1003
4322,955,1003
4323,955,1002
4324,956,1001
4325,954,1001
4326,951,1006
4327,954,1003
4328,954,1007
4329,958,1006
4330,958,1009
4331,956,1008
4332,954,1010
4333,955,1010
4334,954,1013
4335,959,1011
4336,960,1012
4337,961,1011
4338,955,1011
4339,954,1011
4340,956,1014
4341,958,1010
4342,958,1011
4343,957,1008
4344,957,1005
4345,958,1005
4346,958,1008
4347,961,1007
4348,961,1008
4349,961,1006
4350,961,1004
4351,961,1007
4352,965,1005
4353,966,1007
4354,963,1008
4355,962,1007
4356,961,1006
4357,966,1004
4358,970,1000
4359,973,999
4360,972,1001
4361,970,1001
4362,966,1000
4363,967,998
4364,972,1000
4365,974,1002
4366,974,1003
4367,977,1003
4368,975,1002
4369,979,1000
4370,981,1003
4371,987,1004
4372,987,1006
4373,986,1008
4374,984,1006
4375,982,1008
4376,986,1007
4377,990,1009
4378,989,1009
4379,993,1008
4380,994,1007
4381,997,1007
4382,1000,1009
4383,1004,1011
4384,1007,1011
4385,1007,1007
4386,1006,1000
4387,1006,1002
4388,1009,1004
4389,1012,1002
4390,1014,1004
4391,1011,999
4392,1007,998
4393,1010,1001
4394,1013,1001
4395,1010,1004
4396,1009,1003
4397,1006,1001
4398,1003,996
4399,1001,997
4400,1001,998
4401,999,1000
4402,998,999
4403,993,994
4404,990,995
4405,991,995
4406,989,998
4407,989,1001
4408,985,1002
4409,982,998
4410,979,996
4411,977,996
4412,978,1000
4413,976,1005
4414,980,1007
4415,978,1006
4416,977,1007
4417,975,1007
4418,978,1007
4419,977,1009
4420,977,1009
4421,975,1007
4422,971,1009
4423,972,1011
4424,974,1012
4425,975,1013
4426,972,1011
4427,969,1008
4428,967,1006
4429,969,1006
4430,972,1009
4431,973,1007
4432,974,1009
4433,974,1004
4434,974,1003
4435,976,1005
4436,976,1009
4437,975,1010
4438,971,1008
4439,969,1006
4440,967,1002
4441,969,1007
4442,971,1007
4443,972,1004
4444,972,1003
4445,972,1000
4446,971,998
4447,973,1000
4448,974,1003
4449,976,1006
4450,974,1003
4451,974,1000
4452,975,998
4453,975,1002
4454,977,1007
4455,979,1005
4456,980,1005
4457,977,1001
4458,972,1002
4459,975,1007
4460,977,1013
4461,978,1012
4462,979,1011
4463,978,1010
4464,977,1009
4465,976,1010
4466,979,1015
4467,981,1014
4468,980,1013
4469,980,1010
4470,976,1010
4471,976,1008
4472,974,1012
4473,976,1010
4474,974,1008
4475,975,1003
4476,973,1002
4477,977,1004
4478,976,1009
4479,976,1009
4480,976,1007
4481,977,1005
4482,976,1003
4483,979,1007
4484,981,1009
4485,979,1009
4486,977,1004
4487,975,1001
4488,973,997
4489,975,1001
4490,978,1002
4491,979,1004
4492,981,1003
4493,977,996
4494,976,998
4495,973,999
4496,975,1004
4497,976,1005
4498,975,1003
4499,976,1002
4500,974,1000
4501,974,1001
4502,976,1008
4503,975,1009
4504,975,1008
4505,976,1007
4506,974,1005
4507,974,1009
4508,974,1012
4509,976,1014
4510,977,1013
4511,976,1010
4512,976,1009
4513,976,1010
4514,977,1013
4515,979,1012
4516,981,1010
4517,976,1006
4518,977,1004
4519,974,1007
4520,975,1009
4521,978,1010
4522,977,1011
4523,977,1005
4524,975,1004
4525,973,1006
4526,976,1008
4527,976,1010
4528,981,1008
4529,979,1005
4530,975,1001
4531,975,1000
4532,977,1004
4533,979,1001
4534,979,1001
4535,977,996
4536,974,997
4537,975,1000
4538,976,1003
4539,978,1003
4540,981,1003
4541,979,1001
4542,980,1000
4543,980,1002
4544,982,1007
4545,987,1009
4546,988,1009
4547,986,1007
4548,986,1007
4549,985,1010
4550,985,1014
4551,989,1014
4552,989,1008
4553,993,1005
4554,996,1007
4555,1004,1013
4556,1012,1016
4557,1016,1013
4558,1012,1010
4559,1008,1005
4560,1005,1007
4561,1006,1006
4562,1007,1008
4563,1006,1007
4564,1002,1004
4565,999,1002
4566,999,1002
4567,997,1005
4568,997,1007
4569,999,1005
4570,996,1005
4571,992,1001
4572,989,1002
4573,987,1002
4574,983,1003
4575,979,999
4576,978,998
4577,978,997
4578,975,995
4579,974,1001
4580,973,1001
4581,976,998
4582,976,999
4583,975,997
4584,971,1001
4585,974,1001
4586,974,1004
4587,975,1003
4588,975,1004
4589,970,1003
4590,968,1003
4591,973,1009
4592,970,1009
4593,974,1010
4594,973,1006
4595,972,1006
4596,971,1007
4597,969,1011
4598,966,1011
4599,963,1011
4600,959,1008
4601,958,1007
4602,961,1008
4603,979,1012
4604,1015,1011
4605,1061,1009
4606,1117,1005
4607,1183,1000
4608,1241,994
4609,1255,989
4610,1223,979
4611,1165,975
4612,1103,977
4613,1054,985
4614,1034,993
4615,1035,1003
4616,1031,1006
4617,1024,999
4618,1012,999
4619,1001,1001
4620,990,1000
4621,979,1000
4622,973,999
4623,970,999
4624,969,999
4625,963,997
4626,958,998
4627,954,999
4628,955,1002
4629,955,1004
4630,955,1005
4631,955,1008
4632,952,1005
4633,953,1006
4634,952,1006
4635,956,1009
4636,955,1012
4637,954,1009
4638,953,1009
4639,949,1006
4640,951,1009
4641,953,1010
4642,953,1011
4643,952,1006
4644,948,1004
4645,948,1003
4646,955,1006
4647,955,1008
4648,953,1006
4649,952,1004
4650,948,1002
4651,950,1003
4652,953,1006
4653,955,1008
4654,952,1006
4655,951,1006
4656,952,1001
4657,952,1000
4658,953,1004
4659,957,1003
4660,954,1002
4661,951,998
4662,952,997
4663,952,999
4664,956,1003
4665,958,1003
4666,956,1000
4667,954,999
4668,950,999
4669,952,1001
4670,956,1005
4671,961,1005
4672,960,1008
4673,957,1005
4674,955,1004
4675,956,1008
4676,960,1011
4677,961,1011
4678,965,1011
4679,963,1008
4680,962,1008
4681,962,1011
4682,965,1013
4683,966,1011
4684,966,1008
4685,967,1005
4686,965,1002
4687,967,1006
4688,967,1005
4689,971,1006
4690,974,1006
4691,978,1003
4692,978,1005
4693,980,1009
4694,982,1009
4695,985,1006
4696,982,1002
4697,984,1002
4698,983,1002
4699,986,1001
4700,989,1003
4701,991,999
4702,994,998
4703,995,996
4704,994,997
4705,995,995
4706,998,996
4707,1004,994
4708,1004,995
4709,1003,996
4710,1003,995
4711,1003,996
4712,1004,999
4713,1007,998
4714,1008,998
4715,1006,999
4716,1004,1002
4717,1001,1004
4718,1002,1005
4719,1003,1003
4720,999,1004
4721,996,1004
4722,992,1003
4723,989,1004
4724,990,1003
4725,989,1006
4726,988,1007
4727,988,1002
4728,984,1004
4729,980,1005
4730,979,1004
4731,980,1004
4732,980,1004
4733,980,1002
4734,977,1000
4735,973,1001
4736,973,1001
4737,973,1002
4738,973,1003
4739,972,1001
4740,973,999
4741,969,1001
4742,966,1000
4743,966,1001
4744,967,999
4745,968,998
4746,965,994
4747,965,996
4748,967,1000
4749,971,999
4750,969,1001
4751,969,997
4752,966,996
4753,963,997
4754,964,1003
4755,971,1005
4756,976,1007
4757,972,1003
4758,971,1005
4759,969,1003
4760,972,1009
4761,973,1010
4762,971,1011
4763,972,1008
4764,973,1008
4765,971,1007
4766,972,1011
4767,977,1010
4768,976,1008
4769,975,1003
4770,971,1000
4771,974,1003
4772,975,1004
4773,975,1007
4774,975,1003
4775,975,1001
4776,973,998
4777,975,1001
4778,977,1007
4779,979,1007
4780,978,1006
4781,976,999
4782,976,998
4783,975,999
4784,976,997
4785,978,999
4786,976,996
4787,977,992
4788,978,992
4789,973,996
4790,973,1000
4791,980,998
4792,979,996
4793,977,993
4794,975,994
4795,973,999
4796,971,1004
4797,975,1002
4798,975,1002
4799,975,1003
4800,974,1003
4801,976,1005
4802,975,1006
4803,973,1008
4804,971,1006
4805,974,1002
4806,974,1005
4807,973,1007
4808,975,1007
4809,976,1005
4810,975,1004
4811,975,1002
4812,973,1000
4813,971,1002
4814,976,1003
4815,978,1001
4816,978,1001
4817,975,998
4818,974,1000
4819,973,1001
4820,974,1002
4821,977,1000
4822,973,1002
4823,972,1001
4824,971,999
4825,969,1000
4826,971,997
4827,972,992
4828,974,997
4829,973,997
4830,970,999
4831,966,996
4832,971,997
4833,973,997
4834,974,994
4835,970,999
4836,970,999
4837,971,999
4838,975,1003
4839,976,1002
4840,974,1005
4841,971,1003
4842,969,1005
4843,968,1008
4844,971,1006
4845,974,1009
4846,975,1007
4847,975,1008
4848,971,1009
4849,970,1008
4850,973,1007
4851,975,1008
4852,974,1005
4853,972,1007
4854,968,1007
4855,967,1006
4856,969,1006
4857,971,1003
4858,970,1003
4859,971,1003
4860,967,1004
4861,971,1005
4862,976,1009
4863,975,1006
4864,972,1008
4865,969,1005
4866,969,1004
4867,968,1002
4868,971,1001
4869,973,1000
4870,973,1000
4871,976,998
4872,980,1000
4873,986,1003
4874,996,1004
4875,1004,1002
4876,1003,1000
4877,1000,998
4878,995,1000
4879,992,1001
4880,993,1004
4881,992,1002
4882,987,1003
4883,986,1000
4884,984,1002
4885,982,1006
4886,985,1005
4887,988,1006
4888,987,1006
4889,985,1007
4890,980,1008
4891,974,1009
4892,971,1010
4893,972,1009
4894,967,1009
4895,964,1010
4896,960,1009
4897,958,1007
4898,960,1007
4899,963,1004
4900,963,1004
4901,963,1004
4902,961,1004
4903,959,1005
4904,957,1006
4905,957,1006
4906,958,1006
4907,956,1006
4908,956,1004
4909,952,1007
4910,955,1006
4911,955,1003
4912,956,1006
4913,953,1002
4914,954,1001
4915,953,1000
4916,953,1000
4917,952,1002
4918,947,1003
4919,947,1003
4920,945,1004
4921,953,1003
4922,973,1006
4923,1009,1003
4924,1045,1006
4925,1091,1004
4926,1151,998
4927,1203,994
4928,1214,986
4929,1175,980
4930,1110,977
4931,1054,981
4932,1015,988
4933,992,1001
4934,987,1009
4935,987,1015
4936,979,1013
4937,976,1011
4938,973,1010
4939,963,1010
4940,960,1010
4941,952,1010
4942,944,1011
4943,940,1009
4944,937,1005
4945,936,1006
4946,935,1008
4947,935,1009
4948,933,1011
4949,927,1008
4950,923,1004
4951,924,1005
4952,930,1006
4953,931,1008
4954,932,1011
4955,928,1008
4956,928,1003
4957,929,1001
4958,931,1004
4959,932,1006
4960,929,1005
4961,926,1001
4962,923,999
4963,923,1002
4964,925,1005
4965,928,1005
4966,929,1006
4967,922,1003
4968,918,1003
4969,920,1007
4970,923,1010
4971,924,1014
4972,924,1012
4973,922,1010
4974,920,1008
4975,921,1012
4976,920,1015
4977,917,1016
4978,919,1012
4979,920,1009
4980,920,1007
4981,919,1011
4982,923,1014
4983,927,1013
4984,922,1009
4985,914,1006
4986,911,1005
4987,914,1009
4988,919,1012
4989,924,1008
4990,921,1007
4991,919,1007
4992,919,1009
4993,920,1011
4994,923,1012
4995,928,1008
4996,928,1006
4997,925,1003
4998,923,1003
4999,924,1005
5000,926,1006
